n,||u||_2,||u||_inf,E(u),||p||_2,||p||_inf,E(p),||T||_2,||T||_inf,E(T),||S||_2,||S||_inf,E(S)
0,0.0,0.0,0.0,0.5773502691896264,1.0000000000000042,0.5000000000000016,0.22962536955588533,1.0,2.455137533259828,0.0,0.0,0.0
1,0.43770929788458207,1.199180522316221,15.760400414745538,137.90007007745245,281.92951122032866,13219.237956036139,0.28729121957343395,1.0,1.5569634748488064,0.0,0.0,0.0
2,0.8532421506727788,2.1197450874003674,40.589331666248604,186.9314544063952,362.3996566738414,21824.259896391173,0.3243914019279659,1.0,1.2292131319178168,0.0,0.0,0.0
3,1.2147064139797514,2.7699193502212593,66.68090072774955,220.54303728788452,419.31673308781785,31828.077225249934,0.3522293853938843,1.0,1.049046112336625,0.0,0.0,0.0
4,1.5163653799206789,3.2578053777582983,91.15051211736984,246.4011228654611,462.3794347930801,41144.810524487184,0.3748178919550669,1.0,0.932444288662559,0.0,0.0,0.0
5,1.7608804304003092,3.6220751553508976,112.72971227636941,267.33215087539156,497.7351538506701,49841.03414017036,0.3939916545039125,1.0,0.8502875400643689,0.0,0.0,0.0
6,1.954048579086255,3.862854636907429,130.86477819581935,284.7243148205097,526.499598152363,57978.984152449215,0.410733216753346,1.0,0.7894491297837951,0.0,0.0,0.0
7,2.102889193978512,4.0147285378484865,145.45459476951325,299.40633649252027,550.4703593047582,65601.48205899233,0.4256220217368408,1.0,0.742999556683688,0.0,0.0,0.0
8,2.2146755003683873,4.102962423443473,156.70380165912582,311.9397569895196,570.8220533814538,72739.62045718884,0.4390224423074009,1.0,0.7068533853757767,0.0,0.0,0.0
9,2.2963617611188654,4.155117511688942,165.0049426714533,322.73545794219075,588.3490608615651,79418.26146144407,0.45117544656558844,1.0,0.6783859832597455,0.0,0.0,0.0
10,2.3542439345910053,4.190829474249144,170.84042634547143,332.10724605979834,603.6170767636074,85659.13904357463,0.46224827088263354,1.0,0.655790896410466,0.0,0.0,0.0
11,2.3937848139199027,4.199977039868267,174.7079765240433,340.3002110808841,617.0426556996734,91482.46051332534,0.4723631672253868,1.0,0.637757523240067,0.0,0.0,0.0
12,2.419558395771831,4.1910478074359085,177.0709975714967,347.50801557811417,628.939619146323,96907.6950296205,0.4816145914175473,1.0,0.623299838803734,0.0,0.0,0.0
13,2.4352764330577683,4.170329901328881,178.33113097459074,353.88477140202536,639.5485314575146,101953.94464030964,0.49007956584293116,1.0,0.6116596355301436,0.0,0.0,0.0
14,2.443866191340023,4.142421883595398,178.8178297814358,359.5538569200507,649.0566279936609,106640.10057712732,0.4978238819752761,1.0,0.6022473959468472,0.0,0.0,0.0
15,2.447574864549293,4.110630403187013,178.78929654740878,364.6147183657101,657.6118487888109,110984.88551272429,0.5049057553866876,1.0,0.5946027297504116,0.0,0.0,0.0
16,2.4480826425953213,4.0772815389173696,178.43990242635988,369.14818038896635,665.3329537511493,115006.833664382,0.5113779410220246,1.0,0.5883656472217329,0.0,0.0,0.0
17,2.4466123775336657,4.043964720476801,177.91047175230221,373.22058646192676,672.3168938863126,118724.23759696362,0.5172889399490822,1.0,0.5832545293855658,0.0,0.0,0.0
18,2.4440287020035103,4.011723190990808,177.29907663308103,376.8870040988197,678.6442007584656,122155.07893673763,0.522683686601657,1.0,0.579048799030827,0.0,0.0,0.0
19,2.440923153764656,3.9812016044552236,176.67100307635437,380.1936834689358,684.3829229264413,125316.95375019731,0.5276039500477103,1.0,0.5755752259103958,0.0,0.0,0.0
20,2.4376844129111026,3.9527597195701007,176.0672690819146,383.17994209365935,689.5914998425185,128226.99880614429,0.5320885850720314,1.0,0.5726971728646495,0.0,0.0,0.0
21,2.434554370678527,3.926557939989566,175.51152208605032,385.87957195615945,694.3208420473118,130901.82330594744,0.5361737090394649,1.0,0.5703062385991221,0.0,0.0,0.0
22,2.4316716083083403,3.9026217336004443,175.01540401061766,388.32192839734915,698.6158551260744,133357.44902442084,0.5398928452311956,1.0,0.5683158303861119,0.0,0.0,0.0
23,2.4291042407144623,3.8808888114433744,174.58258348452787,390.5327430657216,702.5165452701337,135609.25904364767,0.5432770531338491,1.0,0.5666562612493379,0.0,0.0,0.0
24,2.426874112687812,3.8612431555027804,174.21169680419408,392.5347462376245,706.0588331628279,137671.95692312735,0.5463550550516972,1.0,0.5652710285142857,0.0,0.0,0.0
25,2.4249741833975498,3.8435390294898117,173.8984310151443,394.34814524922905,709.2751597070145,139559.53624788314,0.5491533625699927,1.0,0.5641139928107388,0.0,0.0,0.0
26,2.4233806904189636,3.8276174852580445,173.63695438791748,395.9909967180138,712.1949451535281,141285.26038885335,0.5516964035069507,1.0,0.5631472347663027,0.0,0.0,0.0
27,2.422061411128639,3.813317343986979,173.42086415942936,397.4795004296587,714.844945429258,142861.65197202822,0.5540066486987714,1.0,0.5623394174793205,0.0,0.0,0.0
28,2.420981074909728,3.8004821845026635,173.24378630121726,398.8282352855421,717.2495364181029,144300.49129264875,0.5561047374986613,1.0,0.5616645249557544,0.0,0.0,0.0
29,2.420104744004053,3.7889645049567573,173.0997308394811,400.05035211524216,719.4309475160941,145612.82272575708,0.5580096008151791,1.0,0.5611008800831534,0.0,0.0,0.0
30,2.41939978202748,3.7786279301836068,172.9832801738124,401.15773404571854,721.409459065266,146808.96807118657,0.5597385806429999,1.0,0.5606303713335878,0.0,0.0,0.0
31,2.418836867971291,3.7693481058072447,172.8896669823993,402.1611321305686,723.203573558161,147898.54572307182,0.5613075452350136,1.0,0.5602378365509557,0.0,0.0,0.0
32,2.4183903868859957,3.761012741654206,172.81478213864156,403.0702817942894,724.8301672489694,148890.49456110486,0.5627309992720693,1.0,0.5599105662405793,0.0,0.0,0.0
33,2.418038431556788,3.7535211317091486,172.75514085606898,403.8940041119449,726.3046265902044,149793.10151106465,0.564022188579796,1.0,0.5596378989556361,0.0,0.0,0.0
34,2.4177625770388596,3.7467833770750083,172.7078262590668,404.6402948564396,727.6409724299564,150614.0318033996,0.5651931991106234,1.0,0.559410888671731,0.0,0.0,0.0
35,2.417547536895511,3.740719464652742,172.67042304813853,405.31640347521255,728.8519739271695,151360.36105946396,0.5662550500507382,1.0,0.559222029247063,0.0,0.0,0.0
36,2.417380771957323,3.735258301244386,172.64094929711274,405.92890361437753,729.9492535113357,152038.60844578632,0.5672177810272928,1.0,0.5590650247775958,0.0,0.0,0.0
37,2.4172520957172234,3.730336765389151,172.6177912036739,406.48375642286993,730.943383812947,152654.7702497675,0.5680905334831263,1.0,0.5589345973123909,0.0,0.0,0.0
38,2.417153302141439,3.7258988134078406,172.5996434342055,406.9863675967257,731.8439772454124,153214.35333988984,0.5688816263575748,1.0,0.5588263253091461,0.0,0.0,0.0
39,2.4170778294087882,3.721894658708818,172.58545626774173,407.4416389270659,732.6597687697597,153722.4080758873,0.5695986262656376,1.0,0.5587365076066025,0.0,0.0,0.0
40,2.4170204651389238,3.718280032003745,172.57438983243932,407.8540149742904,733.3986922872059,154183.56032710057,0.5702484124065913,1.0,0.5586620487250128,0.0,0.0,0.0
41,2.416977093728802,3.7150155229035136,172.56577517948446,408.227525387156,734.067951055294,154602.04233919206,0.5708372364597378,1.0,0.5586003620858535,0.0,0.0,0.0
42,2.4169444835303917,3.712065999098501,172.55908163606108,408.5658233071922,734.6740824948496,154981.7222602146,0.5713707777414895,1.0,0.5585492883419753,0.0,0.0,0.0
43,2.416920110085144,3.7094000970208176,172.55388973693454,408.87222023976716,735.2230177387993,155326.13219703842,0.5718541939064694,1.0,0.5585070264801086,0.0,0.0,0.0
44,2.4169020109970094,3.7069897768623123,172.54986899440493,409.14971772613853,735.7201362623886,155638.4947230325,0.5722921674773738,1.0,0.5584720757342471,0.0,0.0,0.0
45,2.416888667939903,3.704809934607796,172.5467597882394,409.4010361133851,736.1703159249578,155921.74779863583,0.5726889484854312,1.0,0.5584431866548527,0.0,0.0,0.0
46,2.4168789115289564,3.7028380640127914,172.54435871337353,409.6286406877914,736.5779787434816,156178.56809904624,0.5730483934966296,1.0,0.5584193199318906,0.0,0.0,0.0
47,2.4168718451865114,3.7010539619914176,172.54250679571263,409.8347654111618,736.947132707415,156411.39276882441,0.5733740012894069,1.0,0.5583996117811045,0.0,0.0,0.0
48,2.4168667846061114,3.6994394715402357,172.54108006391033,410.0214344767529,737.2814099321403,156622.439642745,0.5736689454380454,1.0,0.5583833448811907,0.0,0.0,0.0
49,2.4168632099005425,3.6979782570180015,172.53998204067568,410.1904818815602,737.5841014347528,156813.7259867252,0.5739361040432907,1.0,0.558369924000679,0.0,0.0,0.0
50,2.4168607279783014,3.6966556072753547,172.5391377871255,410.34356919401506,737.8581888013895,156987.08582295183,0.5741780868381077,1.0,0.558358855582176,0.0,0.0,0.0
51,2.416859043108289,3.6954582627529287,172.53848919612926,410.4822016802084,738.106373000078,157144.1859102178,0.5743972598826097,1.0,0.5583497306616123,0.0,0.0,0.0
52,2.4168579339972522,3.6943742632265475,172.53799128484286,410.60774293730344,738.3311005772753,157286.54045461238,0.5745957680481831,1.0,0.5583422105941981,0.0,0.0,0.0
53,2.4168572360174534,3.693392813370118,172.53760928291766,410.7214281697762,738.5345874606119,157415.5246276472,0.5747755554770391,1.0,0.5583360151392377,0.0,0.0,0.0
54,2.4168568274856685,3.6925041637319755,172.53731635172224,410.8243762321662,738.7188405747307,157532.38696914783,0.574938384190025,1.0,0.5583309125247292,0.0,0.0,0.0
55,2.4168566191136827,3.691699505083603,172.53709180218223,410.9176005508937,738.8856774616655,157638.26075117424,0.5750858510025794,1.0,0.5583267111713253,0.0,0.0,0.0
56,2.416856545930301,3.690970874407509,172.5369197053196,411.0020190280957,739.0367440829157,157734.17437719842,0.5752194028964202,1.0,0.5583232528053288,0.0,0.0,0.0
57,2.4168565611212287,3.690311071050293,172.53678781118157,411.07846302090655,739.1735309659477,157821.06088802387,0.5753403509828675,1.0,0.5583204067329298,0.0,0.0,0.0
58,2.4168566313510054,3.6897135817845794,172.53668670928116,411.1476854814157,739.2973878447507,157899.76664268988,0.5754498831827181,1.0,0.5583180650841184,0.0,0.0,0.0
59,2.416856733341203,3.689172280196332,172.53660914931982,411.21036841005673,739.4095326845452,157971.0599133086,0.5755490757152365,1.0,0.5583161388646352,0.0,0.0,0.0
60,2.4168568508658126,3.6886822041810103,172.53654965501326,411.2671295487845,739.5110818564594,158035.63585193898,0.5756389035858093,1.0,0.558314554685842,0.0,0.0,0.0
61,2.4168569730475458,3.688238458404517,172.536503959947,411.31852777673345,739.6030317569621,158094.1255154398,0.5757202500584718,1.0,0.5583132520472434,0.0,0.0,0.0
62,2.4168570928532747,3.687836637837157,172.53646880896693,411.3650696856447,739.6862897884594,158147.1011306259,0.5757939152468537,1.0,0.5583121810918303,0.0,0.0,0.0
63,2.4168572059610995,3.687472768649504,172.53644171706276,411.4072140449264,739.7616776966914,158195.08138678645,0.5758606239100232,1.0,0.5583113007476078,0.0,0.0,0.0
64,2.416857309937506,3.6871432602887486,172.53642078679843,411.4453762905305,739.8299395344345,158238.5363817475,0.5759210325249953,1.0,0.5583105771901961,0.0,0.0,0.0
65,2.4168574036413264,3.686844865394469,172.5364045695,411.4799326180919,739.8917489907668,158277.89213709795,0.575975735700824,1.0,0.558309982571929,0.0,0.0,0.0
66,2.416857486794212,3.6865746453182924,172.5363919593593,411.51122369126824,739.9477160474967,158313.53470347926,0.5760252719940592,1.0,0.5583094939719141,0.0,0.0,0.0
67,2.416857559673531,3.6863299398778633,172.5363821125048,411.5395579984294,739.998393007847,158345.81388820228,0.5760701291804557,1.0,0.5583090925290757,0.0,0.0,0.0
68,2.416857622895253,3.6861083404907,172.53637438510128,411.5652148911452,740.0442799535829,158375.04663861403,0.5761107490331382,1.0,0.5583087627266491,0.0,0.0,0.0
69,2.416857677262636,3.685907666124365,172.53636828599795,411.588447335277,740.0858296848417,158401.52011256048,0.5761475316529739,1.0,0.5583084918019325,0.0,0.0,0.0
70,2.4168577236628392,3.6857259416660852,172.5363634405195,411.6094844021445,740.1234521919504,158425.49446455523,0.5761808393927812,1.0,0.5583082692595543,0.0,0.0,0.0
71,2.416857762998144,3.6855613784133547,172.53635956279203,411.6285335245236,740.1575187038841,158447.2053736547,0.5762110004132067,1.0,0.5583080864702716,0.0,0.0,0.0
72,2.4168577961419135,3.6854123564478414,172.5363564346068,411.64578253976873,740.1883653536429,158466.8663366597,0.5762383119046253,1.0,0.558307936340371,0.0,0.0,0.0
73,2.4168578239120286,3.6852774086948354,172.53635388929163,411.6614015401701,740.2162964968785,158484.67074811654,0.5762630430062574,1.0,0.5583078130393526,0.0,0.0,0.0
74,2.416857847056502,3.6851552064983353,172.53635179940747,411.6755445487287,740.2415877166413,158500.79378667174,0.5762854374508111,1.0,0.5583077117756772,0.0,0.0,0.0
75,2.4168578662473434,3.6850445465629367,172.53635006737812,411.68835103671466,740.2644885438536,158515.3941255586,0.5763057159603379,1.0,0.5583076286121554,0.0,0.0,0.0
76,2.4168578820799365,3.6849443391303307,172.53634861834936,411.699947298116,740.2852249206156,158528.61548342364,0.5763240784166126,1.0,0.5583075603140145,0.0,0.0,0.0
77,2.4168578950758746,3.6848535972722574,172.53634739476013,411.7104476942854,740.3040014304905,158540.58803021666,0.5763407058271661,1.0,0.5583075042238733,0.0,0.0,0.0
78,2.4168579056879085,3.684771427193621,172.53634635221087,411.71995578104276,740.3210033178209,158551.42966155414,0.5763557621061511,1.0,0.5583074581589106,0.0,0.0,0.0
79,2.4168579143059525,3.6846970194499327,172.53634545632525,411.7285653295305,740.3363983162537,158561.24715374422,0.5763693956874278,1.0,0.558307420326275,0.0,0.0,0.0
80,2.416857921263579,3.6846296409927186,172.53634468036506,411.73636125044305,740.3503383041224,158570.13721055305,0.5763817409856216,1.0,0.5583073892535413,0.0,0.0,0.0
81,2.416857926844486,3.6845686279645813,172.5363440034207,411.7434204311793,740.362960803483,158578.18741178288,0.5763929197194549,1.0,0.5583073637315261,0.0,0.0,0.0
82,2.416857931288698,3.6845133791732545,172.53634340903693,411.7498124938316,740.37439033731,158585.4770728075,0.5764030421102984,1.0,0.5583073427672975,0.0,0.0,0.0
83,2.4168579347983434,3.6844633501806703,172.5363428841694,411.75560048160764,740.3847396583716,158592.0780233694,0.5764122079676886,1.0,0.5583073255455346,0.0,0.0,0.0
84,2.4168579375429062,3.684418047949028,172.53634241839362,411.7608414804265,740.3941108619233,158598.05531318186,0.5764205076724429,1.0,0.5583073113967976,0.0,0.0,0.0
85,2.41685793966392,3.6843770259914677,172.53634200330376,411.76558718179405,740.4025963931842,158603.4678511781,0.576428023067026,1.0,0.5583072997714444,0.0,0.0,0.0
86,2.4168579412791487,3.684339879979819,172.53634163205783,411.76988439247225,740.4102799595286,158608.36898462052,0.5764348282618975,1.0,0.5583072902182036,0.0,0.0,0.0
87,2.4168579424862044,3.6843062437663257,172.5363412990274,411.7737754960915,740.4172373565176,158612.80702370446,0.5764409903657579,1.0,0.5583072823665806,0.0,0.0,0.0
88,2.4168579433657182,3.6842757857804767,172.53634099953877,411.7772988710262,740.4235372157042,158616.82571676144,0.5764465701468718,1.0,0.5583072759123998,0.0,0.0,0.0
89,2.4168579439840583,3.6842482057655133,172.53634072966605,411.7804892689408,740.4292416819021,158620.4646807086,0.5764516226319588,1.0,0.5583072706059371,0.0,0.0,0.0
90,2.4168579443956455,3.6842232318227173,172.53634048608117,411.78337815741986,740.4344070262579,158623.75979093442,0.5764561976485444,1.0,0.5583072662421683,0.0,0.0,0.0
91,2.4168579446449523,3.6842006177344166,172.5363402659344,411.78599403031086,740.4390842014576,158626.7435344442,0.5764603403161029,1.0,0.5583072626527683,0.0,0.0,0.0
