n,||u||_2,||u||_inf,E(u),||p||_2,||p||_inf,E(p),||T||_2,||T||_inf,E(T),||S||_2,||S||_inf,E(S)
0,0.07053482742264826,1.0,33.491631946360066,0.0004082231505165085,0.02234733363170518,0.00035437859857861563,0.0,0.0,0.0,0.0,0.0,0.0
1,0.07378756541373865,1.0,27.527203759060498,0.006787942572417391,0.06159873524166291,0.0011242306350163066,0.0,0.0,0.0,0.0,0.0,0.0
2,0.07731105814577383,1.0,24.005468892880458,0.0059922217542589225,0.06945479851648484,0.0012852606239294947,0.0,0.0,0.0,0.0,0.0,0.0
3,0.08067423483492431,1.0,21.791000832651044,0.005375551241081282,0.07897422236541807,0.0018450499808776103,0.0,0.0,0.0,0.0,0.0,0.0
4,0.08373096564068522,1.0,20.31236515099073,0.004834659992532924,0.08834999526250673,0.002762424124721427,0.0,0.0,0.0,0.0,0.0,0.0
5,0.08649297008515323,1.0,19.248469242602944,0.004413976989836159,0.101274618973682,0.004280565657308878,0.0,0.0,0.0,0.0,0.0,0.0
6,0.08901478965115144,1.0,18.45516218749185,0.004124611562229966,0.11999754548697146,0.006793993609799062,0.0,0.0,0.0,0.0,0.0,0.0
7,0.09139953451389123,1.0,17.879079849492246,0.004049755682573531,0.14992684891457464,0.011263668307399874,0.0,0.0,0.0,0.0,0.0,0.0
8,0.09365235497196495,1.0,17.490194816725936,0.004155472823910857,0.18271859226073273,0.01754183028230943,0.0,0.0,0.0,0.0,0.0,0.0
9,0.09574598201718401,1.0,17.238522337204348,0.004419146276720702,0.21332751393499486,0.0244962115177391,0.0,0.0,0.0,0.0,0.0,0.0
10,0.09764708626687897,1.0,17.073597575518036,0.004739516613523364,0.23813171744711706,0.030568956691239255,0.0,0.0,0.0,0.0,0.0,0.0
11,0.09934951499109375,1.0,16.950762321663856,0.005024792056023433,0.2549136919994439,0.03450816307765785,0.0,0.0,0.0,0.0,0.0,0.0
12,0.10087042725546093,1.0,16.843290128122604,0.005269573566444344,0.26458839413613167,0.03632634923249328,0.0,0.0,0.0,0.0,0.0,0.0
13,0.10226552088591981,1.0,16.744425491910658,0.005523931533288737,0.2701731901929748,0.03726628911290252,0.0,0.0,0.0,0.0,0.0,0.0
14,0.10363170686115966,1.0,16.663002222355786,0.005846078483971253,0.27420334172109306,0.038446506314089475,0.0,0.0,0.0,0.0,0.0,0.0
15,0.10506367645392507,1.0,16.639816123084437,0.006265166547042856,0.2779515481988471,0.040023506718753835,0.0,0.0,0.0,0.0,0.0,0.0
16,0.10657817805593277,1.0,16.711626688877413,0.006740432271882881,0.28188592280224317,0.041781809412731005,0.0,0.0,0.0,0.0,0.0,0.0
17,0.10805137797009685,1.0,16.85911365246657,0.007174746697195707,0.2865712983312256,0.04400833751593421,0.0,0.0,0.0,0.0,0.0,0.0
18,0.10932115202264693,1.0,17.013905930806025,0.007511248116346412,0.2921960035897857,0.04689511879878991,0.0,0.0,0.0,0.0,0.0,0.0
19,0.11034027375647316,1.0,17.102816199048245,0.007775192956103744,0.2981062518689796,0.0498459220982445,0.0,0.0,0.0,0.0,0.0,0.0
20,0.11118668666679428,1.0,17.099523128604943,0.008014719772446947,0.3036565238600274,0.05231513695410739,0.0,0.0,0.0,0.0,0.0,0.0
21,0.11198514019425722,1.0,17.03788162012379,0.008269174403838092,0.3084918513989655,0.054282656470829006,0.0,0.0,0.0,0.0,0.0,0.0
22,0.11283902603436208,1.0,16.972730178652725,0.008563070550601258,0.31241419290506955,0.05581800190741963,0.0,0.0,0.0,0.0,0.0,0.0
23,0.11377900020959326,1.0,16.946408661912724,0.008890150468512402,0.3154671552548231,0.05679760397870745,0.0,0.0,0.0,0.0,0.0,0.0
24,0.1147366007257807,1.0,16.96447588446281,0.009210288362980365,0.3179855585095098,0.057327827346442914,0.0,0.0,0.0,0.0,0.0,0.0
25,0.11564992367771387,1.0,17.0062043970897,0.009499220808301342,0.3200220970857525,0.05794579883029788,0.0,0.0,0.0,0.0,0.0,0.0
26,0.11649011848641268,1.0,17.05102452138565,0.009737208424787425,0.32156560165425346,0.058423452813932894,0.0,0.0,0.0,0.0,0.0,0.0
27,0.11728440913322227,1.0,17.093259593752357,0.00994535399695148,0.3226842975668883,0.05867475700808039,0.0,0.0,0.0,0.0,0.0,0.0
28,0.11805848803480708,1.0,17.13565840073075,0.010147005064124606,0.3235600979621774,0.05883931094532742,0.0,0.0,0.0,0.0,0.0,0.0
29,0.11881263146790588,1.0,17.17861977326903,0.010346700368580276,0.3243627107563523,0.05908591174217194,0.0,0.0,0.0,0.0,0.0,0.0
30,0.11954017809631011,1.0,17.21927544377202,0.010535387715390806,0.32515405690132343,0.05937565860061706,0.0,0.0,0.0,0.0,0.0,0.0
31,0.12024661215794785,1.0,17.256412662195444,0.01070772759683234,0.3258972363184175,0.05952861578283959,0.0,0.0,0.0,0.0,0.0,0.0
32,0.12094500518537958,1.0,17.29162000039025,0.010866688508820712,0.32654412217654377,0.059481325028320015,0.0,0.0,0.0,0.0,0.0,0.0
33,0.12164346393552014,1.0,17.325814096268648,0.011017233491286442,0.32708665640600526,0.05936434018713879,0.0,0.0,0.0,0.0,0.0,0.0
34,0.12234367694283839,1.0,17.358434518353942,0.011162319220818917,0.3275433622730881,0.05929318945526054,0.0,0.0,0.0,0.0,0.0,0.0
35,0.12304581846212025,1.0,17.38962841556904,0.011304318498081748,0.327931407623768,0.05922631071392564,0.0,0.0,0.0,0.0,0.0,0.0
36,0.12375094240353925,1.0,17.420936696940235,0.011445320418221782,0.3282504606011431,0.05909314122738022,0.0,0.0,0.0,0.0,0.0,0.0
37,0.12445938782004759,1.0,17.455410200754688,0.011583395961021837,0.32849825720282316,0.058913001687456,0.0,0.0,0.0,0.0,0.0,0.0
38,0.1251642693492238,1.0,17.494788899225266,0.011711869847767885,0.3286918865684019,0.05876286737206712,0.0,0.0,0.0,0.0,0.0,0.0
39,0.12584831263730145,1.0,17.536178479428575,0.01182319044382564,0.32885866841608113,0.05870804518258762,0.0,0.0,0.0,0.0,0.0,0.0
40,0.12649277840272477,1.0,17.573312234835342,0.01191554903657686,0.3290069655836596,0.05876365141835816,0.0,0.0,0.0,0.0,0.0,0.0
41,0.1270908337514747,1.0,17.5999467610854,0.011996461060997471,0.3291209222438756,0.0588807845920897,0.0,0.0,0.0,0.0,0.0,0.0
42,0.1276515981379122,1.0,17.613251814277085,0.01207582634626636,0.3291992611338994,0.058987238276581686,0.0,0.0,0.0,0.0,0.0,0.0
43,0.12819313424840684,1.0,17.615755202641125,0.012158913893487326,0.3292749209963572,0.05905206386184102,0.0,0.0,0.0,0.0,0.0,0.0
44,0.1287326197724537,1.0,17.61314339803155,0.01224703872643834,0.32939302407012494,0.05910388816441313,0.0,0.0,0.0,0.0,0.0,0.0
45,0.12928074245977686,1.0,17.610187402780372,0.012340855933599822,0.3295879152737941,0.05918025597118989,0.0,0.0,0.0,0.0,0.0,0.0
46,0.1298410911065216,1.0,17.609544963416127,0.012441966582766292,0.32987729455409076,0.059285289134757134,0.0,0.0,0.0,0.0,0.0,0.0
47,0.1304119383339205,1.0,17.612523765323992,0.012550810501920619,0.3302696246180625,0.05942165910549346,0.0,0.0,0.0,0.0,0.0,0.0
48,0.1309878702590802,1.0,17.619694408810183,0.01266493552564063,0.3307654710217664,0.059599715279966194,0.0,0.0,0.0,0.0,0.0,0.0
49,0.1315609833569804,1.0,17.630205224496553,0.01278065393034624,0.33134866230396076,0.059818457741064084,0.0,0.0,0.0,0.0,0.0,0.0
50,0.13212413154682495,1.0,17.64162200202089,0.012894730473025185,0.33198378047448823,0.06006641610971479,0.0,0.0,0.0,0.0,0.0,0.0
51,0.13267544505511691,1.0,17.651271797655546,0.01300624423541114,0.33262054931793983,0.06031559576632815,0.0,0.0,0.0,0.0,0.0,0.0
52,0.13321949963465818,1.0,17.657832484141807,0.013117531987094297,0.3332061555076522,0.06052698314745089,0.0,0.0,0.0,0.0,0.0,0.0
53,0.13376339857890127,1.0,17.662015023220015,0.013231742888110801,0.33370447685011173,0.060677855051133885,0.0,0.0,0.0,0.0,0.0,0.0
54,0.1343112531453442,1.0,17.665658915365665,0.013349589310481427,0.3341069066410944,0.06077468972366774,0.0,0.0,0.0,0.0,0.0,0.0
55,0.13486155068854455,1.0,17.670161404769956,0.01346892573420868,0.3344268674588226,0.06083791070059309,0.0,0.0,0.0,0.0,0.0,0.0
56,0.13540857006654194,1.0,17.67585945188009,0.013586669870613381,0.33468847185083705,0.06088439177112481,0.0,0.0,0.0,0.0,0.0,0.0
57,0.1359456737618275,1.0,17.68240740735263,0.013700545702987663,0.33491960174522595,0.06092634807464241,0.0,0.0,0.0,0.0,0.0,0.0
58,0.1364680580264916,1.0,17.689217160226207,0.013809635055647099,0.3351483540240953,0.06097553809787898,0.0,0.0,0.0,0.0,0.0,0.0
59,0.1369742414844441,1.0,17.695661276206796,0.013914285903521175,0.33539909567853526,0.061040806584662974,0.0,0.0,0.0,0.0,0.0,0.0
60,0.13746654706147554,1.0,17.701317559333237,0.014015940566518803,0.33568885086666744,0.06112222768468209,0.0,0.0,0.0,0.0,0.0,0.0
61,0.13795051319907856,1.0,17.70637151215604,0.014116732118696474,0.33602708488492883,0.06121024667599913,0.0,0.0,0.0,0.0,0.0,0.0
62,0.1384329135677451,1.0,17.711838359775896,0.014218625290580574,0.33641866378576485,0.061291851323263334,0.0,0.0,0.0,0.0,0.0,0.0
63,0.13891887171229844,1.0,17.719166308699315,0.014322520532223122,0.33686553761844523,0.06135821628392465,0.0,0.0,0.0,0.0,0.0,0.0
64,0.13940969224519642,1.0,17.729369580561148,0.014428007992296184,0.3373642276572392,0.061407103395484844,0.0,0.0,0.0,0.0,0.0,0.0
65,0.13990289340302614,1.0,17.742459255588905,0.014533940304587467,0.3379018759973972,0.06143887848942758,0.0,0.0,0.0,0.0,0.0,0.0
66,0.1403942658903892,1.0,17.757639023771663,0.014639277751135264,0.3384558087604834,0.06145147789931295,0.0,0.0,0.0,0.0,0.0,0.0
67,0.14088031041010993,1.0,17.77392975906251,0.01474352703880678,0.3389978228157711,0.06143925376209697,0.0,0.0,0.0,0.0,0.0,0.0
68,0.14135953665603918,1.0,17.79066975517245,0.014846604163859984,0.33950008136368304,0.06139495487035297,0.0,0.0,0.0,0.0,0.0,0.0
69,0.14183228063916573,1.0,17.807663214755205,0.014948425638316455,0.3399391504747457,0.06131176520460246,0.0,0.0,0.0,0.0,0.0,0.0
70,0.1422996604786674,1.0,17.825031174932136,0.01504857285366238,0.34029706866064396,0.06118451312487567,0.0,0.0,0.0,0.0,0.0,0.0
71,0.1427625387970513,1.0,17.842936845808996,0.01514621560903301,0.3405602901338111,0.061010414469362236,0.0,0.0,0.0,0.0,0.0,0.0
72,0.1432210454331146,1.0,17.86136874985125,0.015240332149414275,0.34071786342345217,0.0607887660000567,0.0,0.0,0.0,0.0,0.0,0.0
73,0.14367471819529465,1.0,17.880073035290195,0.015330070999649087,0.34076003768215407,0.060519623053254465,0.0,0.0,0.0,0.0,0.0,0.0
74,0.14412298774287843,1.0,17.898610640581612,0.015414977082004707,0.3406780381658088,0.0602032577713526,0.0,0.0,0.0,0.0,0.0,0.0
75,0.14456566604195628,1.0,17.916481605546853,0.01549496755580395,0.34046484012661254,0.05984097415039887,0.0,0.0,0.0,0.0,0.0,0.0
76,0.14500319906554757,1.0,17.933256379150674,0.015570203445666625,0.34011607197589905,0.05943547505232322,0.0,0.0,0.0,0.0,0.0,0.0
77,0.1454366116671675,1.0,17.948644173148928,0.015641000818987227,0.3396305240387295,0.05899017271476104,0.0,0.0,0.0,0.0,0.0,0.0
78,0.14586723215458092,1.0,17.962469010538282,0.015707797538962707,0.3390103516230704,0.05850895861726614,0.0,0.0,0.0,0.0,0.0,0.0
79,0.14629637309408244,1.0,17.974592964220022,0.01577115018352132,0.33826127031536585,0.057997202272088114,0.0,0.0,0.0,0.0,0.0,0.0
80,0.14672512853205466,1.0,17.984859523545328,0.015831706783520024,0.337393120706063,0.05746324127344356,0.0,0.0,0.0,0.0,0.0,0.0
81,0.14715433999916885,1.0,17.993102976083485,0.015890141292579343,0.3364208734589753,0.05691907754961914,0.0,0.0,0.0,0.0,0.0,0.0
82,0.14758466780339863,1.0,17.999201278577505,0.015947119801475455,0.33536557801291916,0.05637941464404485,0.0,0.0,0.0,0.0,0.0,0.0
83,0.14801667645397887,1.0,18.003115023634017,0.016003295769006852,0.33425475395433696,0.0558599086502928,0.0,0.0,0.0,0.0,0.0,0.0
84,0.14845090216137158,1.0,18.004896287673933,0.016059247248057507,0.33312202662636153,0.055376291203962244,0.0,0.0,0.0,0.0,0.0,0.0
85,0.1488879178353506,1.0,18.004694623138086,0.016115387493897116,0.3320057807028743,0.054944073194833964,0.0,0.0,0.0,0.0,0.0,0.0
86,0.1493283897300188,1.0,18.002769303274587,0.01617195600335068,0.3309467491330283,0.05457750902116053,0.0,0.0,0.0,0.0,0.0,0.0
87,0.14977309086742188,1.0,17.99948671410887,0.016229075270689154,0.32998497575681546,0.05428832302738791,0.0,0.0,0.0,0.0,0.0,0.0
88,0.15022286222025197,1.0,17.995290411471203,0.01628679958278964,0.32915676384400516,0.0540853721642653,0.0,0.0,0.0,0.0,0.0,0.0
89,0.15067854626943308,1.0,17.990657418869343,0.016345158412569744,0.32849198867012197,0.05397478124177915,0.0,0.0,0.0,0.0,0.0,0.0
90,0.1511409006940415,1.0,17.986060115161706,0.016404219695074447,0.32801201413185377,0.05395959419684055,0.0,0.0,0.0,0.0,0.0,0.0
91,0.1516104763051584,1.0,17.98193413125787,0.01646413382141239,0.32772845512008086,0.05403919429757506,0.0,0.0,0.0,0.0,0.0,0.0
92,0.15208747169611206,1.0,17.978640645504317,0.016525080172147228,0.3276429868982059,0.05420927288192366,0.0,0.0,0.0,0.0,0.0,0.0
93,0.15257161972069785,1.0,17.976425529775096,0.016587108600219932,0.3277482076190337,0.05446247606617302,0.0,0.0,0.0,0.0,0.0,0.0
94,0.15306214814506905,1.0,17.975392706129696,0.016649996641992328,0.32802924391274146,0.05478929142633049,0.0,0.0,0.0,0.0,0.0,0.0
95,0.15355780220209173,1.0,17.975500444066736,0.01671325237610728,0.3284656657044157,0.055178849062798935,0.0,0.0,0.0,0.0,0.0,0.0
96,0.15405689255705315,1.0,17.976572136372035,0.01677624350614017,0.32903349354486383,0.0556196536947442,0.0,0.0,0.0,0.0,0.0,0.0
97,0.15455736103178982,1.0,17.978311820433042,0.016838319422509587,0.3297072936415289,0.05610030941385477,0.0,0.0,0.0,0.0,0.0,0.0
98,0.15505688902257972,1.0,17.980326606489843,0.016898843789452025,0.33046227000260386,0.056610119621646915,0.0,0.0,0.0,0.0,0.0,0.0
99,0.1555530645466813,1.0,17.982164548845013,0.016957170146674767,0.33127605891843953,0.05713940470639592,0.0,0.0,0.0,0.0,0.0,0.0
100,0.156043584821649,1.0,17.98336984911542,0.017012636189616393,0.3321299044743242,0.057679545925654135,0.0,0.0,0.0,0.0,0.0,0.0
101,0.1565264445648081,1.0,17.983545228366445,0.017064615823722085,0.33300907708218275,0.058222901115384015,0.0,0.0,0.0,0.0,0.0,0.0
102,0.15700006810480557,1.0,17.982404774677363,0.01711261491381161,0.333902633162377,0.05876269924216532,0.0,0.0,0.0,0.0,0.0,0.0
103,0.15746337315285705,1.0,17.97980381268941,0.01715636816662734,0.33480276468344544,0.05929291388957514,0.0,0.0,0.0,0.0,0.0,0.0
104,0.15791577955058572,1.0,17.975741411382575,0.0171958990617295,0.3357040002631277,0.05980809320549009,0.0,0.0,0.0,0.0,0.0,0.0
105,0.15835718285428324,1.0,17.970339600986964,0.017231532352452367,0.33660242396805395,0.06030317627368125,0.0,0.0,0.0,0.0,0.0,0.0
106,0.15878790363095988,1.0,17.963808013799536,0.017263874099621004,0.337494968661004,0.06077335278689881,0.0,0.0,0.0,0.0,0.0,0.0
107,0.1592086113371029,1.0,17.956403789279168,0.017293774569742317,0.33837880690118,0.06121399949410132,0.0,0.0,0.0,0.0,0.0,0.0
108,0.15962021659115352,1.0,17.94839485898366,0.01732227187042027,0.33925089632911787,0.06162070466080209,0.0,0.0,0.0,0.0,0.0,0.0
109,0.16002373029078826,1.0,17.940030511570118,0.017350508135375333,0.34010774884721784,0.0619893889770507,0.0,0.0,0.0,0.0,0.0,0.0
110,0.16042010109969537,1.0,17.931518749601945,0.01737962730317511,0.34094543023652857,0.062316515084756774,0.0,0.0,0.0,0.0,0.0,0.0
111,0.16081006180456411,1.0,17.92300953062547,0.017410684389490397,0.3417597073398069,0.06259933577972826,0.0,0.0,0.0,0.0,0.0,0.0
112,0.1611940317742433,1.0,17.914587794025106,0.01744459627582004,0.3425462314098936,0.06283609836271829,0.0,0.0,0.0,0.0,0.0,0.0
113,0.1615721205903005,1.0,17.90628489917028,0.017482141598870495,0.34330070517130234,0.06302614187529669,0.0,0.0,0.0,0.0,0.0,0.0
114,0.16194424466485943,1.0,17.898113888244588,0.017523991389724564,0.344019066028844,0.06316989358889835,0.0,0.0,0.0,0.0,0.0,0.0
115,0.1623103165780729,1.0,17.890121896002537,0.0175707421634703,0.34469774513241247,0.06326883273169974,0.0,0.0,0.0,0.0,0.0,0.0
116,0.1626704301079165,1.0,17.882441120208508,0.017622932536693107,0.3453340107233726,0.06332548059711199,0.0,0.0,0.0,0.0,0.0,0.0
117,0.16302496807989278,1.0,17.875318107978124,0.01768104043224441,0.3459263302847431,0.06334340365931106,0.0,0.0,0.0,0.0,0.0,0.0
118,0.16337459864357975,1.0,17.869110566567123,0.0177454660124232,0.3464746562660911,0.0633271544344953,0.0,0.0,0.0,0.0,0.0,0.0
119,0.16372017009183612,1.0,17.864253766316683,0.01781650346248941,0.34698056465335403,0.06328208423206053,0.0,0.0,0.0,0.0,0.0,0.0
120,0.1640625430255051,1.0,17.861207005152608,0.017894302724359913,0.34744721125998557,0.0632140259467123,0.0,0.0,0.0,0.0,0.0,0.0
121,0.16440240936796735,1.0,17.86039279268117,0.017978828666444315,0.3478790829325781,0.06312889687313449,0.0,0.0,0.0,0.0,0.0,0.0
122,0.1647401481837364,1.0,17.862140970968202,0.018069834821050346,0.34828152792031575,0.06303227616388456,0.0,0.0,0.0,0.0,0.0,0.0
123,0.16507576094681922,1.0,17.866649790842605,0.01816686819583053,0.34866009348994176,0.0629289945238447,0.0,0.0,0.0,0.0,0.0,0.0
124,0.16540890899477553,1.0,17.873974203598664,0.018269305905568866,0.3490197786941032,0.06282276902577795,0.0,0.0,0.0,0.0,0.0,0.0
125,0.16573904240143034,1.0,17.884044912386837,0.018376405696694714,0.34936436387357983,0.06271592349909004,0.0,0.0,0.0,0.0,0.0,0.0
126,0.16606557448036138,1.0,17.896710654861273,0.01848734779443988,0.3496959474588528,0.06260923909806808,0.0,0.0,0.0,0.0,0.0,0.0
127,0.16638803927186682,1.0,17.911786750973818,0.018601257226255642,0.3500147232702143,0.06250197211781702,0.0,0.0,0.0,0.0,0.0,0.0
128,0.16670618188221326,1.0,17.929091923978795,0.018717210790026098,0.35031894530455493,0.062392046033166615,0.0,0.0,0.0,0.0,0.0,0.0
129,0.16701996587458462,1.0,17.948463545993846,0.018834239754368435,0.3506050030233819,0.06227636798862991,0.0,0.0,0.0,0.0,0.0,0.0
130,0.16732951737821722,1.0,17.96975249559629,0.018951338374670113,0.3508675522574673,0.06215117264328516,0.0,0.0,0.0,0.0,0.0,0.0
131,0.1676350439389353,1.0,17.9928058758411,0.0190674848026021,0.351099671747442,0.062012306216568114,0.0,0.0,0.0,0.0,0.0,0.0
132,0.16793676304723537,1.0,18.0174469688162,0.019181677019620487,0.35129302630209763,0.0618554229248778,0.0,0.0,0.0,0.0,0.0,0.0
133,0.16823485955050232,1.0,18.04345920228561,0.019292980879385115,0.351438029365109,0.06167612020120187,0.0,0.0,0.0,0.0,0.0,0.0
134,0.1685294749771167,1.0,18.07057746710021,0.0194005812193112,0.3515240228240915,0.061470054907352245,0.0,0.0,0.0,0.0,0.0,0.0
135,0.16882072200511433,1.0,18.098487470218263,0.01950382443109345,0.35153951886731327,0.06123307135137522,0.0,0.0,0.0,0.0,0.0,0.0
136,0.16910871396191998,1.0,18.12683227107986,0.019602244083590892,0.35147255639324315,0.060961357550306294,0.0,0.0,0.0,0.0,0.0,0.0
137,0.16939359951675775,1.0,18.155224470883287,0.019695567570400443,0.35131120440682695,0.060651637363596425,0.0,0.0,0.0,0.0,0.0,0.0
138,0.16967559445487773,1.0,18.183262325594526,0.019783707065172025,0.3510442055334163,0.060301395734770745,0.0,0.0,0.0,0.0,0.0,0.0
139,0.1699550047595873,1.0,18.21054796488582,0.019866740325075863,0.35066171009936453,0.05990911807162706,0.0,0.0,0.0,0.0,0.0,0.0
140,0.17023223779863025,1.0,18.236705734201166,0.01994488664470369,0.3501560191290814,0.059474511772638204,0.0,0.0,0.0,0.0,0.0,0.0
141,0.17050780087805614,1.0,18.261398624031465,0.020018481926865738,0.3495222414037746,0.05899867696054091,0.0,0.0,0.0,0.0,0.0,0.0
142,0.1707822886357554,1.0,18.284341147609446,0.02008795529024247,0.3487587789054238,0.05848420053765674,0.0,0.0,0.0,0.0,0.0,0.0
143,0.17105636259242055,1.0,18.305307874634337,0.020153808040717272,0.34786758651798316,0.05793515617775016,0.0,0.0,0.0,0.0,0.0,0.0
144,0.17133072723134896,1.0,18.32413772046965,0.02021659448717923,0.34685419975050036,0.057357004615136355,0.0,0.0,0.0,0.0,0.0,0.0
145,0.17160610668610465,1.0,18.34073464999144,0.020276903650647417,0.3457275739864589,0.05675640534712449,0.0,0.0,0.0,0.0,0.0,0.0
146,0.1718832245051269,1.0,18.355065615834697,0.020335341357660294,0.3444998115239466,0.05614096672247161,0.0,0.0,0.0,0.0,0.0,0.0
147,0.17216278689382486,1.0,18.36715643222062,0.020392512617843896,0.34318585387943146,0.05551896888443154,0.0,0.0,0.0,0.0,0.0,0.0
148,0.17244546838442562,1.0,18.37708603164337,0.02044900418209589,0.3418031837121277,0.05489909046035404,0.0,0.0,0.0,0.0,0.0,0.0
149,0.1727318985657078,1.0,18.384979334578283,0.02050536735646625,0.3403715265124514,0.05429015715434714,0.0,0.0,0.0,0.0,0.0,0.0
150,0.1730226490907774,1.0,18.390998946696502,0.020562101832791085,0.33891249362053544,0.05370091437003377,0.0,0.0,0.0,0.0,0.0,0.0
