n,||u||_2,||u||_inf,E(u),||p||_2,||p||_inf,E(p),||T||_2,||T||_inf,E(T),||S||_2,||S||_inf,E(S)
0,0.07799613994940695,1.0,23.32445368162569,0.01627088480571491,0.15344750649730193,0.006771300427264565,0.0,0.0,0.0,0.0,0.0,0.0
1,0.08930481178947706,1.0,17.520155327419484,0.018467091399366982,0.2516211435600816,0.018214169738989067,0.0,0.0,0.0,0.0,0.0,0.0
2,0.09836258864962757,1.0,15.016461052611676,0.015375663448209271,0.290119420283816,0.026496554800234023,0.0,0.0,0.0,0.0,0.0,0.0
3,0.10561935374991824,1.0,13.666676738311276,0.013549514576936032,0.3343851073006877,0.03812262136625999,0.0,0.0,0.0,0.0,0.0,0.0
4,0.11157879092651957,1.0,12.865495732518884,0.012471253737753556,0.3775179104677228,0.050964516170057,0.0,0.0,0.0,0.0,0.0,0.0
5,0.11656619474179722,1.0,12.364057946245964,0.011903316227164078,0.414839558791465,0.06297865274862455,0.0,0.0,0.0,0.0,0.0,0.0
6,0.12081066645436993,1.0,12.035435926742682,0.011686406073717421,0.44473998211265015,0.07300430595158239,0.0,0.0,0.0,0.0,0.0,0.0
7,0.12448845268983803,1.0,11.813864336960318,0.011704807359931948,0.46786252083686136,0.08083830125291296,0.0,0.0,0.0,0.0,0.0,0.0
8,0.12773036150050704,1.0,11.665435749326775,0.011888175952283074,0.4857422714950647,0.08686357976867809,0.0,0.0,0.0,0.0,0.0,0.0
9,0.1306272577921556,1.0,11.56960791602603,0.012192668472794108,0.49986986132740385,0.09159395088774408,0.0,0.0,0.0,0.0,0.0,0.0
10,0.1332412370514544,1.0,11.511215791341176,0.012583850650133822,0.5113303987131909,0.09542029103839211,0.0,0.0,0.0,0.0,0.0,0.0
11,0.13561774821912892,1.0,11.478761718282831,0.013031916911879977,0.520808864058534,0.09858234303624497,0.0,0.0,0.0,0.0,0.0,0.0
12,0.1377941211370035,1.0,11.46434293098268,0.01351215840448082,0.5287234184869045,0.10120233149300939,0.0,0.0,0.0,0.0,0.0,0.0
13,0.13980195953973407,1.0,11.462910757954472,0.014005974671046563,0.5353509539885823,0.10334059561920254,0.0,0.0,0.0,0.0,0.0,0.0
14,0.14166642512525995,1.0,11.47088833658868,0.014500096820451305,0.5409000109595464,0.10505556483234615,0.0,0.0,0.0,0.0,0.0,0.0
15,0.14340709473351637,1.0,11.485333818995493,0.014984769385378415,0.5455418129983665,0.10641724364556004,0.0,0.0,0.0,0.0,0.0,0.0
16,0.14504001625416252,1.0,11.503901164961432,0.015452635202770917,0.5494195869831011,0.10748869526653207,0.0,0.0,0.0,0.0,0.0,0.0
17,0.14657924391933694,1.0,11.524919868693063,0.01589899524569861,0.5526607669292688,0.10832068877945736,0.0,0.0,0.0,0.0,0.0,0.0
18,0.14803715104652684,1.0,11.547264172977346,0.016321307149280272,0.5553773274491411,0.10895607895025244,0.0,0.0,0.0,0.0,0.0,0.0
19,0.14942463624729024,1.0,11.570169823799514,0.016718723761847274,0.5576639114230785,0.1094301392975788,0.0,0.0,0.0,0.0,0.0,0.0
20,0.15075115765914676,1.0,11.59312071023856,0.017091645834660357,0.5595983691721403,0.10977177383943248,0.0,0.0,0.0,0.0,0.0,0.0
21,0.15202461971809775,1.0,11.615743418867089,0.0174412763725562,0.561243716703793,0.11000639838741641,0.0,0.0,0.0,0.0,0.0,0.0
22,0.15325146498873116,1.0,11.637739778245157,0.01776920028787195,0.5626507113337929,0.1101561634166845,0.0,0.0,0.0,0.0,0.0,0.0
23,0.15443699063763064,1.0,11.65887894210466,0.018077136229130892,0.5638604431606937,0.11023885268319167,0.0,0.0,0.0,0.0,0.0,0.0
24,0.15558562239820944,1.0,11.678995509041826,0.018366840917063282,0.5649066086858604,0.1102686760386471,0.0,0.0,0.0,0.0,0.0,0.0
25,0.15670108991664813,1.0,11.697971257012359,0.018640055581867675,0.5658172094242687,0.11025769458453064,0.0,0.0,0.0,0.0,0.0,0.0
26,0.15778661066972727,1.0,11.71573135708475,0.01889846710153285,0.5666157116507263,0.11021602694360158,0.0,0.0,0.0,0.0,0.0,0.0
27,0.15884506113148944,1.0,11.732258764679717,0.019143695015968114,0.567321886666672,0.11015170161829488,0.0,0.0,0.0,0.0,0.0,0.0
28,0.15987903724176572,1.0,11.747593887981898,0.019377280666700247,0.5679524294845528,0.11007121352625338,0.0,0.0,0.0,0.0,0.0,0.0
29,0.160890821628169,1.0,11.761808850067254,0.01960065602242833,0.5685213496613356,0.10998022020575861,0.0,0.0,0.0,0.0,0.0,0.0
30,0.16188236289116084,1.0,11.774980277585978,0.019815108236680663,0.5690402046505655,0.10988361589198706,0.0,0.0,0.0,0.0,0.0,0.0
31,0.1628553149380237,1.0,11.787179649048955,0.020021765163437642,0.5695183185507455,0.10978523264524756,0.0,0.0,0.0,0.0,0.0,0.0
32,0.1638110997069437,1.0,11.798475500331563,0.020221603294765387,0.5699630677854912,0.10968775734304806,0.0,0.0,0.0,0.0,0.0,0.0
33,0.16475095184594435,1.0,11.808934576526347,0.02041546400765513,0.5703802112422358,0.1095929587278057,0.0,0.0,0.0,0.0,0.0,0.0
34,0.16567594617170317,1.0,11.818619459069755,0.02060406955321998,0.5707742098351601,0.10950196149453242,0.0,0.0,0.0,0.0,0.0,0.0
35,0.16658702633545902,1.0,11.827587533752844,0.020788039277721264,0.5711485099115524,0.10941541178441766,0.0,0.0,0.0,0.0,0.0,0.0
36,0.16748503720402658,1.0,11.835893142832653,0.020967907057819,0.5715057907337725,0.10933358770458679,0.0,0.0,0.0,0.0,0.0,0.0
37,0.16837074885703174,1.0,11.84358986044388,0.021144137383500933,0.571848175040232,0.1092565323762904,0.0,0.0,0.0,0.0,0.0,0.0
38,0.1692448651063191,1.0,11.850730069494121,0.021317137122714488,0.5721773940538556,0.10918419269986124,0.0,0.0,0.0,0.0,0.0,0.0
39,0.17010802235887143,1.0,11.857362502612595,0.021487262793371657,0.5724949024614951,0.10911650589242983,0.0,0.0,0.0,0.0,0.0,0.0
40,0.17096078928308123,1.0,11.86353027253959,0.021654825429009216,0.5728019504052527,0.10905341671921101,0.0,0.0,0.0,0.0,0.0,0.0
41,0.171803672244758,1.0,11.869270799342072,0.021820095079373648,0.5730996262761989,0.10899485661646229,0.0,0.0,0.0,0.0,0.0,0.0
42,0.17263712436412154,1.0,11.874617053894902,0.02198330563703094,0.5733888826500925,0.10894072413301946,0.0,0.0,0.0,0.0,0.0,0.0
43,0.1734615538769079,1.0,11.879598786077624,0.022144659650796032,0.573670552848278,0.10889088362221366,0.0,0.0,0.0,0.0,0.0,0.0
44,0.17427732982332395,1.0,11.884243041795497,0.022304332661623585,0.5739453621998791,0.10884517599535673,0.0,0.0,0.0,0.0,0.0,0.0
45,0.17508478596934263,1.0,11.888574189302053,0.022462476951194136,0.5742139369790898,0.10880342922084278,0.0,0.0,0.0,0.0,0.0,0.0
46,0.17588422467461629,1.0,11.892614004583447,0.022619224868781127,0.5744768135208479,0.10876546318376976,0.0,0.0,0.0,0.0,0.0,0.0
47,0.17667592139101926,1.0,11.896382089413843,0.022774691899104645,0.5747344489541957,0.10873109116426918,0.0,0.0,0.0,0.0,0.0,0.0
48,0.1774601292120462,1.0,11.89989648474802,0.022928979468212436,0.5749872335409734,0.1087001222120689,0.0,0.0,0.0,0.0,0.0,0.0
49,0.17823708251795592,1.0,11.903174176900285,0.02308217735568604,0.5752355035455444,0.10867236628441754,0.0,0.0,0.0,0.0,0.0,0.0
50,0.179006999261022,1.0,11.906231314218486,0.02323436559150779,0.5754795532817574,0.10864764082779238,0.0,0.0,0.0,0.0,0.0,0.0
51,0.17977008215075413,1.0,11.909083169873691,0.023385615829780063,0.5757196453079413,0.10862577611446461,0.0,0.0,0.0,0.0,0.0,0.0
52,0.18052651936981567,1.0,11.911744016452738,0.02353599231112754,0.5759560182666651,0.10860661750484643,0.0,0.0,0.0,0.0,0.0,0.0
53,0.18127648535895233,1.0,11.914227065329598,0.02368555258063309,0.5761888923048831,0.1085900246268785,0.0,0.0,0.0,0.0,0.0,0.0
54,0.18202014187234128,1.0,11.916544526736022,0.023834348106071965,0.5764184722938209,0.10857586877596992,0.0,0.0,0.0,0.0,0.0,0.0
55,0.18275763920497076,1.0,11.91870775318432,0.02398242487332385,0.5766449492478677,0.1085640300652427,0.0,0.0,0.0,0.0,0.0,0.0
56,0.18348911738063234,1.0,11.920727391500197,0.024129823969394285,0.5768685004553414,0.10855439529324641,0.0,0.0,0.0,0.0,0.0,0.0
57,0.1842147071473645,1.0,11.92261348711319,0.024276582127790287,0.577089288883848,0.10854685674099279,0.0,0.0,0.0,0.0,0.0,0.0
58,0.18493453075340266,1.0,11.924375527125976,0.024422732210503412,0.5773074623897845,0.10854131160611896,0.0,0.0,0.0,0.0,0.0,0.0
59,0.18564870257370533,1.0,11.926022443603669,0.024568303619569007,0.5775231531513029,0.10853766166799057,0.0,0.0,0.0,0.0,0.0,0.0
60,0.1863573296836161,1.0,11.92756261004711,0.02471332265148846,0.5777364775842556,0.10853581294067513,0.0,0.0,0.0,0.0,0.0,0.0
61,0.1870605124446005,1.0,11.929003854902117,0.024857812816784966,0.5779475368396594,0.10853567530043774,0.0,0.0,0.0,0.0,0.0,0.0
62,0.18775834511443576,1.0,11.93035349830119,0.025001795142826237,0.5781564178549993,0.10853716221090973,0.0,0.0,0.0,0.0,0.0,0.0
63,0.18845092406138814,1.0,11.931600978418558,0.025145278272523126,0.5783644775423352,0.10854064384541043,0.0,0.0,0.0,0.0,0.0,0.0
64,0.18913833553654885,1.0,11.93277704005765,0.02528829910308105,0.5785690059009426,0.10854509007803333,0.0,0.0,0.0,0.0,0.0,0.0
65,0.18982065406568926,1.0,11.93388508257404,0.025430868397654207,0.5787716986739011,0.1085509695012814,0.0,0.0,0.0,0.0,0.0,0.0
66,0.1904979522135656,1.0,11.934929318041897,0.025572996989785744,0.5789725380314807,0.1085581930049356,0.0,0.0,0.0,0.0,0.0,0.0
67,0.19117029998298773,1.0,11.935914260202038,0.025714695935851975,0.5791715204230176,0.10856667945353521,0.0,0.0,0.0,0.0,0.0,0.0
68,0.19183776457656254,1.0,11.93684445931391,0.02585597580031421,0.5793686574293191,0.1085763584136785,0.0,0.0,0.0,0.0,0.0,0.0
69,0.19250041035834894,1.0,11.937724364168723,0.0259968463815201,0.5795639722610647,0.10858716914749286,0.0,0.0,0.0,0.0,0.0,0.0
70,0.19315829891272715,1.0,11.938558249595674,0.026137316604159095,0.5797574956711014,0.10859905856411253,0.0,0.0,0.0,0.0,0.0,0.0
71,0.1938114891547009,1.0,11.939350181979432,0.026277394483682593,0.5799492629610205,0.10861197946474702,0.0,0.0,0.0,0.0,0.0,0.0
72,0.19446003746858384,1.0,11.940104008480995,0.026417087135193005,0.5801393122065286,0.1086258893036872,0.0,0.0,0.0,0.0,0.0,0.0
73,0.19510399785896523,1.0,11.940823360018925,0.026556400815856432,0.5803276832335208,0.1086407493125276,0.0,0.0,0.0,0.0,0.0,0.0
74,0.19574342210159182,1.0,11.941511660530152,0.026695340989878805,0.5805144169131374,0.10865652382818107,0.0,0.0,0.0,0.0,0.0,0.0
75,0.19637835988593771,1.0,11.942172137529898,0.026833912404012113,0.5806995545606856,0.10867317974303031,0.0,0.0,0.0,0.0,0.0,0.0
76,0.19700885894540385,1.0,11.942807831415696,0.026972119162612534,0.5808831373923209,0.10869068605173834,0.0,0.0,0.0,0.0,0.0,0.0
77,0.19763496517438975,1.0,11.943421602853887,0.0271099647952352,0.5810652060652446,0.10870901349076774,0.0,0.0,0.0,0.0,0.0,0.0
78,0.1982567227334495,1.0,11.944016138726253,0.027247452313869838,0.5812458003338337,0.10872813426784211,0.0,0.0,0.0,0.0,0.0,0.0
79,0.19887417414447087,1.0,11.944593957547237,0.027384584260390393,0.5814249588336783,0.10874802187343743,0.0,0.0,0.0,0.0,0.0,0.0
80,0.19948736037767378,1.0,11.945157415194753,0.02752136274736667,0.5816027189823476,0.1087686509621086,0.0,0.0,0.0,0.0,0.0,0.0
81,0.20009632093164087,1.0,11.945708711472923,0.027657789495902748,0.5817791169726677,0.10878999728975794,0.0,0.0,0.0,0.0,0.0,0.0
82,0.20070109390693563,1.0,11.94624989764875,0.027793865873492727,0.5819541878312008,0.10881203769324861,0.0,0.0,0.0,0.0,0.0,0.0
83,0.20130171607336467,1.0,11.946782884807602,0.027929592933298754,0.5821279655185508,0.10883475009997251,0.0,0.0,0.0,0.0,0.0,0.0
84,0.20189822293067636,1.0,11.947309452712618,0.028064971454826653,0.5823004830539493,0.10885811355624836,0.0,0.0,0.0,0.0,0.0,0.0
85,0.20249064876246922,1.0,11.947831258827247,0.02820000198404379,0.5824717726541259,0.10888210826466138,0.0,0.0,0.0,0.0,0.0,0.0
86,0.20307902668322514,1.0,11.948349847229478,0.0283346848707133,0.5826418658790118,0.1089067156215121,0.0,0.0,0.0,0.0,0.0,0.0
87,0.20366338867860323,1.0,11.948866657260169,0.02846902030036985,0.5828107937790413,0.10893191824674861,0.0,0.0,0.0,0.0,0.0,0.0
88,0.20424376563935243,1.0,11.949383031859993,0.028603008319193973,0.5829785870373179,0.10895770000008227,0.0,0.0,0.0,0.0,0.0,0.0
89,0.20482018738939256,1.0,11.949900225628902,0.028736648851138424,0.5831452760980149,0.10898404597861161,0.0,0.0,0.0,0.0,0.0,0.0
90,0.20539268270871905,1.0,11.950419412676055,0.028869941707717332,0.5833108912709876,0.1090109424930641,0.0,0.0,0.0,0.0,0.0,0.0
91,0.20596127935185468,1.0,11.950941694319928,0.029002886591860982,0.5834754628021721,0.10903837702166669,0.0,0.0,0.0,0.0,0.0,0.0
92,0.2065260040625641,1.0,11.951468106658917,0.029135483098122337,0.5836390208999905,0.10906633814250236,0.0,0.0,0.0,0.0,0.0,0.0
93,0.20708688258553223,1.0,11.951999627981577,0.029267730711182455,0.5838015957122663,0.1090948154468781,0.0,0.0,0.0,0.0,0.0,0.0
94,0.20764393967565117,1.0,11.952537185936906,0.02939962880473562,0.5839632172513418,0.10912379943753234,0.0,0.0,0.0,0.0,0.0,0.0
95,0.20819719910551832,1.0,11.953081664350954,0.029531176642043584,0.5841239152703555,0.10915328141641224,0.0,0.0,0.0,0.0,0.0,0.0
96,0.20874668367168675,1.0,11.953633909564019,0.029662373378604223,0.584283719098279,0.10918325336714857,0.0,0.0,0.0,0.0,0.0,0.0
97,0.20929241520016206,1.0,11.954194736170802,0.029793218067014248,0.5844426574438537,0.1092137078372673,0.0,0.0,0.0,0.0,0.0,0.0
98,0.20983441455158275,1.0,11.954764932073187,0.029923709662931345,0.5846007581818811,0.10924463782467908,0.0,0.0,0.0,0.0,0.0,0.0
99,0.21037270162646882,1.0,11.955345262792198,0.030053847031199562,0.584758048134519,0.10927603667214277,0.0,0.0,0.0,0.0,0.0,0.0
100,0.21090729537087205,1.0,11.955936475027663,0.030183628951043668,0.5849145528592152,0.1093078979723511,0.0,0.0,0.0,0.0,0.0,0.0
101,0.2114382137827114,1.0,11.956539299492384,0.03031305411901785,0.5850702964535398,0.10934021548518028,0.0,0.0,0.0,0.0,0.0,0.0
102,0.21196547391903028,1.0,11.957154453078306,0.030442121149383015,0.585225301382625,0.10937298306754775,0.0,0.0,0.0,0.0,0.0,0.0
103,0.21248909190437767,1.0,11.957782640432486,0.03057082857150766,0.5853795883330585,0.10940619461542955,0.0,0.0,0.0,0.0,0.0,0.0
104,0.21300908294048018,1.0,11.958424555029735,0.03069917482455106,0.5855331760936133,0.10943984401685716,0.0,0.0,0.0,0.0,0.0,0.0
105,0.2135254613173537,1.0,11.959080879828255,0.030827158250099868,0.585686081460893,0.10947392511428049,0.0,0.0,0.0,0.0,0.0,0.0
106,0.21403824042598352,1.0,11.959752287586383,0.03095477708359555,0.5858383191666923,0.10950843167446395,0.0,0.0,0.0,0.0,0.0,0.0
107,0.21454743277268495,1.0,11.960439440906242,0.031082029445463625,0.5859899018233579,0.1095433573641185,0.0,0.0,0.0,0.0,0.0,0.0
108,0.21505304999525,1.0,11.961142992056057,0.031208913332856386,0.586140839883416,0.10957869572965033,0.0,0.0,0.0,0.0,0.0,0.0
109,0.21555510288096424,1.0,11.961863582609945,0.03133542661273958,0.5862911416105449,0.10961444017972727,0.0,0.0,0.0,0.0,0.0,0.0
110,0.21605360138655808,1.0,11.962601842932989,0.03146156701665736,0.5864408130602341,0.10965058396970964,0.0,0.0,0.0,0.0,0.0,0.0
111,0.21654855466013928,1.0,11.963358391532134,0.03158733213752326,0.5865898580689994,0.10968712018735466,0.0,0.0,0.0,0.0,0.0,0.0
112,0.21703997106511513,1.0,11.96413383428863,0.03171271942798833,0.5867382782530233,0.10972404173949457,0.0,0.0,0.0,0.0,0.0,0.0
113,0.2175278582060923,1.0,11.964928763585883,0.03183772620037472,0.5868860730163815,0.10976134133962528,0.0,0.0,0.0,0.0,0.0,0.0
114,0.21801222295670614,1.0,11.965743757345606,0.03196234962746047,0.5870332395704123,0.10979901149645424,0.0,0.0,0.0,0.0,0.0,0.0
115,0.21849307148930883,1.0,11.96657937798552,0.03208658674350744,0.5871797729653295,0.10983704450351792,0.0,0.0,0.0,0.0,0.0,0.0
116,0.21897040930641762,1.0,11.967436171311226,0.032210434445220995,0.5873256661341336,0.10987543242994216,0.0,0.0,0.0,0.0,0.0,0.0
117,0.21944424127381787,1.0,11.968314665354077,0.03233388949201232,0.5874709099491452,0.10991416711235602,0.0,0.0,0.0,0.0,0.0,0.0
118,0.21991457165519554,1.0,11.969215369165092,0.0324569485053004,0.5876154932902237,0.10995324014787958,0.0,0.0,0.0,0.0,0.0,0.0
119,0.22038140414818175,1.0,11.97013877157248,0.032579607966851845,0.5877594031229877,0.10999264288805505,0.0,0.0,0.0,0.0,0.0,0.0
120,0.22084474192168513,1.0,11.971085339907926,0.03270186421600561,0.587902624585499,0.11003236643354208,0.0,0.0,0.0,0.0,0.0,0.0
121,0.22130458765439665,1.0,11.972055518704762,0.03282371344614987,0.5880451410809687,0.1100724016294457,0.0,0.0,0.0,0.0,0.0,0.0
122,0.22176094357435377,1.0,11.973049728369443,0.032945151700662596,0.5881869343746299,0.1101127390611939,0.0,0.0,0.0,0.0,0.0,0.0
123,0.22221381149945177,1.0,11.97406836382861,0.033066174868495286,0.5883279846935022,0.11015336905101922,0.0,0.0,0.0,0.0,0.0,0.0
124,0.22266319287879272,1.0,11.975111793154491,0.0331867786801375,0.5884682708272571,0.11019428165522835,0.0,0.0,0.0,0.0,0.0,0.0
125,0.22310908883475183,1.0,11.976180356174888,0.03330695870378696,0.5886077702307666,0.1102354666625843,0.0,0.0,0.0,0.0,0.0,0.0
126,0.22355150020563566,1.0,11.977274363076988,0.03342671034244476,0.5887464591276961,0.11027691359423725,0.0,0.0,0.0,0.0,0.0,0.0
127,0.2239904275887912,1.0,11.978394093018819,0.033546028831622283,0.5888843126169696,0.11031861170571489,0.0,0.0,0.0,0.0,0.0,0.0
128,0.22442587138401332,1.0,11.979539792765491,0.0336649092381729,0.5890213047824203,0.11036054999148356,0.0,0.0,0.0,0.0,0.0,0.0
129,0.22485783183708447,1.0,11.98071167537081,0.03378334645993679,0.5891574088075743,0.11040271719252166,0.0,0.0,0.0,0.0,0.0,0.0
130,0.22528630908326233,1.0,11.981909918926608,0.03390133522616149,0.5892925970967097,0.11044510180723635,0.0,0.0,0.0,0.0,0.0,0.0
131,0.22571130319053567,1.0,11.983134665402254,0.03401887009865997,0.5894268414028693,0.11048769210586626,0.0,0.0,0.0,0.0,0.0,0.0
132,0.2261328142024528,1.0,11.984386019595677,0.03413594547340452,0.5895601129635398,0.11053047614831854,0.0,0.0,0.0,0.0,0.0,0.0
133,0.2265508421803373,1.0,11.985664048214343,0.03425255558248744,0.5896923826434777,0.1105734418051662,0.0,0.0,0.0,0.0,0.0,0.0
134,0.22696538724471027,1.0,11.986968779100568,0.03436869449629644,0.5898236210839407,0.1106165767813599,0.0,0.0,0.0,0.0,0.0,0.0
135,0.22737644961574913,1.0,11.988300200610508,0.034484356125718756,0.5899537988569348,0.1106598686420343,0.0,0.0,0.0,0.0,0.0,0.0
136,0.22778402965263211,1.0,11.989658261151705,0.03459953422456129,0.5900828866221512,0.11070330483972207,0.0,0.0,0.0,0.0,0.0,0.0
137,0.22818812789163087,1.0,11.991042868878788,0.03471422239179378,0.5902108552851036,0.11074687274223892,0.0,0.0,0.0,0.0,0.0,0.0
138,0.22858874508283109,1.0,11.992453891543098,0.03482841407423347,0.5903376761530768,0.11079055966056059,0.0,0.0,0.0,0.0,0.0,0.0
139,0.22898588222538527,1.0,11.99389115648922,0.03494210256928695,0.5904633210875516,0.11083435287608194,0.0,0.0,0.0,0.0,0.0,0.0
140,0.22937954060120685,1.0,11.995354450789444,0.03505528102818506,0.5905877626505692,0.1108782396668166,0.0,0.0,0.0,0.0,0.0,0.0
141,0.22976972180703376,1.0,11.996843521506777,0.035167942459830376,0.590710974243344,0.11092220733220798,0.0,0.0,0.0,0.0,0.0,0.0
142,0.23015642778480339,1.0,11.99835807607793,0.035280079735438154,0.5908329302360665,0.1109662432164573,0.0,0.0,0.0,0.0,0.0,0.0
143,0.230539660850277,1.0,11.999897782808967,0.03539168559410478,0.5909536060880005,0.11101033473035285,0.0,0.0,0.0,0.0,0.0,0.0
144,0.23091942371987426,1.0,12.001462271478582,0.0355027526495723,0.5910729784574406,0.11105446937176802,0.0,0.0,0.0,0.0,0.0,0.0
145,0.23129571953566314,1.0,12.003051134046046,0.03561327339811764,0.5911910253018338,0.11109863474504494,0.0,0.0,0.0,0.0,0.0,0.0
146,0.23166855188847468,1.0,12.004663925462854,0.03572324022795945,0.5913077259677975,0.11114281857953648,0.0,0.0,0.0,0.0,0.0,0.0
147,0.23203792483909894,1.0,12.006300164589009,0.03583264542987332,0.5914230612721595,0.11118700874757369,0.0,0.0,0.0,0.0,0.0,0.0
148,0.23240384293753638,1.0,12.007959335215483,0.035941481209344824,0.5915370135739167,0.1112311932820888,0.0,0.0,0.0,0.0,0.0,0.0
149,0.2327663112402747,1.0,12.009640887194518,0.036049739699998626,0.5916495668379783,0.1112753603940364,0.0,0.0,0.0,0.0,0.0,0.0
150,0.2331253353255759,1.0,12.011344237679076,0.03615741297835761,0.5917607066908789,0.11131949848968223,0.0,0.0,0.0,0.0,0.0,0.0
151,0.2334809213067643,1.0,12.013068772471128,0.03626449307972831,0.591870420468843,0.11136359618773872,0.0,0.0,0.0,0.0,0.0,0.0
